dN/dEdAdt(TeV-1cm-2s-1) Energy(GeV) Energy errors
1.2e-8     6.52e+1  10
5.0e-9     1.0e+2   10
2.07e-9    1.5e+2   10
7.8e-10    2.5e+2   10
2.7e-10    3.86e+2  10
9.4e-11    6.05e+2  10
3.562e-11  9.47e+2  10
1.2346e-11 1.48e+3  10
3.59e-12   2.32e+3  10
1.14e-12   3.63e+3  10
2.53e-13   5.68e+3  10
8.8e-14    8.778e+3 10
2.14e-14   1.37e+4  10
3.66e-15   2.15e+4  10
